"pressure"	"GlobalNodeId"	"PedigreeNodeId"	"ObjectId"	"GlobalElementId"	"PedigreeElementId"	"vtkValidPointMask"	"arc_length"	"Points:0"	"Points:1"	"Points:2"
0.070671	6214	6214	11	17863	17863	1	0	0.49	1.1	0
0.070669	6212	6212	11	17863	17863	1	0.001	0.49	1.1	0.001
0.070666	6211	6211	11	17863	17863	1	0.002	0.49	1.1	0.002
0.070663	6209	6209	11	17863	17863	1	0.003	0.49	1.1	0.003
0.07066	6207	6207	11	17863	17863	1	0.004	0.49	1.1	0.004
0.070658	6206	6206	11	17863	17863	1	0.005	0.49	1.1	0.005
0.070655	6204	6204	11	17863	17863	1	0.006	0.49	1.1	0.006
0.070652	6202	6202	11	17863	17863	1	0.007	0.49	1.1	0.007
0.070649	6201	6201	11	17863	17863	1	0.008	0.49	1.1	0.008
0.070647	6199	6199	11	17863	17863	1	0.009	0.49	1.1	0.009
0.070644	6197	6197	11	17863	17863	1	0.01	0.49	1.1	0.01
0.070641	6195	6195	11	17863	17863	1	0.011	0.49	1.1	0.011
0.070638	6194	6194	11	17863	17863	1	0.012	0.49	1.1	0.012
0.070635	6192	6192	11	17863	17863	1	0.013	0.49	1.1	0.013
0.070633	6190	6190	11	17863	17863	1	0.014	0.49	1.1	0.014
0.07063	6189	6189	11	17863	17863	1	0.015	0.49	1.1	0.015
0.070627	6187	6187	11	17863	17863	1	0.016	0.49	1.1	0.016
0.070624	6185	6185	11	17863	17863	1	0.017	0.49	1.1	0.017
0.070622	6184	6184	11	17863	17863	1	0.018	0.49	1.1	0.018
0.070619	6182	6182	11	17863	17863	1	0.019	0.49	1.1	0.019
0.070616	6180	6180	11	17863	17863	1	0.02	0.49	1.1	0.02
0.070613	6179	6179	11	17863	17863	1	0.021	0.49	1.1	0.021
0.07061	6177	6177	11	17863	17863	1	0.022	0.49	1.1	0.022
0.070608	6175	6175	11	17863	17863	1	0.023	0.49	1.1	0.023
0.070605	6174	6174	11	17863	17863	1	0.024	0.49	1.1	0.024
0.070602	6172	6172	11	17863	17863	1	0.025	0.49	1.1	0.025
0.070599	6170	6170	11	17863	17863	1	0.026	0.49	1.1	0.026
0.070597	6169	6169	11	17863	17863	1	0.027	0.49	1.1	0.027
0.070594	6167	6167	11	17863	17863	1	0.028	0.49	1.1	0.028
0.070591	6165	6165	11	17863	17863	1	0.029	0.49	1.1	0.029
0.070588	6164	6164	11	18149	18149	1	0.03	0.49	1.1	0.03
0.070585	6161	6161	11	18149	18149	1	0.031	0.49	1.1	0.031
0.070583	6158	6158	11	18149	18149	1	0.032	0.49	1.1	0.032
0.07058	6155	6155	11	18149	18149	1	0.033	0.49	1.1	0.033
0.070577	6152	6152	11	18149	18149	1	0.034	0.49	1.1	0.034
0.070574	6150	6150	11	18149	18149	1	0.035	0.49	1.1	0.035
0.070571	6147	6147	11	18149	18149	1	0.036	0.49	1.1	0.036
0.070568	6144	6144	11	18149	18149	1	0.037	0.49	1.1	0.037
0.070565	6141	6141	11	18149	18149	1	0.038	0.49	1.1	0.038
0.070562	6138	6138	11	18149	18149	1	0.039	0.49	1.1	0.039
0.070559	6135	6135	11	18149	18149	1	0.04	0.49	1.1	0.04
0.070556	6132	6132	11	18149	18149	1	0.041	0.49	1.1	0.041
0.070553	6129	6129	11	18149	18149	1	0.042	0.49	1.1	0.042
0.070551	6127	6127	11	18149	18149	1	0.043	0.49	1.1	0.043
0.070548	6124	6124	11	18149	18149	1	0.044	0.49	1.1	0.044
0.070545	6121	6121	11	18149	18149	1	0.045	0.49	1.1	0.045
0.070542	6118	6118	11	18149	18149	1	0.046	0.49	1.1	0.046
0.070539	6115	6115	11	18149	18149	1	0.047	0.49	1.1	0.047
0.070536	6112	6112	11	18149	18149	1	0.048	0.49	1.1	0.048
0.070533	6109	6109	11	18149	18149	1	0.049	0.49	1.1	0.049
0.07053	6107	6107	11	18149	18149	1	0.05	0.49	1.1	0.05
0.070527	6104	6104	11	18149	18149	1	0.051	0.49	1.1	0.051
0.070524	6101	6101	11	18149	18149	1	0.052	0.49	1.1	0.052
0.070522	6098	6098	11	18149	18149	1	0.053	0.49	1.1	0.053
0.070519	6095	6095	11	18149	18149	1	0.054	0.49	1.1	0.054
0.070516	6092	6092	11	18149	18149	1	0.055	0.49	1.1	0.055
0.070513	6089	6089	11	18149	18149	1	0.056	0.49	1.1	0.056
0.07051	6086	6086	11	18149	18149	1	0.057	0.49	1.1	0.057
0.070507	6084	6084	11	18149	18149	1	0.058	0.49	1.1	0.058
0.070504	6081	6081	11	18149	18149	1	0.059	0.49	1.1	0.059
0.070501	6078	6078	11	18149	18149	1	0.06	0.49	1.1	0.06
0.070498	6075	6075	11	18149	18149	1	0.061	0.49	1.1	0.061
0.070495	6072	6072	11	18149	18149	1	0.062	0.49	1.1	0.062
0.070492	6069	6069	11	18149	18149	1	0.063	0.49	1.1	0.063
0.07049	6066	6066	11	18149	18149	1	0.064	0.49	1.1	0.064
0.070487	6063	6063	11	18149	18149	1	0.065	0.49	1.1	0.065
0.070484	6061	6061	11	18149	18149	1	0.066	0.49	1.1	0.066
0.070481	6058	6058	11	18149	18149	1	0.067	0.49	1.1	0.067
0.070478	6055	6055	11	18149	18149	1	0.068	0.49	1.1	0.068
0.070475	6052	6052	11	18149	18149	1	0.069	0.49	1.1	0.069
0.070472	6049	6049	11	18149	18149	1	0.07	0.49	1.1	0.07
0.070469	6046	6046	11	18149	18149	1	0.071	0.49	1.1	0.071
0.070466	6043	6043	11	18149	18149	1	0.072	0.49	1.1	0.072
0.070463	6041	6041	11	18149	18149	1	0.073	0.49	1.1	0.073
0.070461	6038	6038	11	18149	18149	1	0.074	0.49	1.1	0.074
0.070458	6035	6035	11	18149	18149	1	0.075	0.49	1.1	0.075
0.070455	6031	6031	11	17638	17638	1	0.076	0.49	1.1	0.076
0.070451	6027	6027	11	17638	17638	1	0.077	0.49	1.1	0.077
0.070448	6023	6023	11	17638	17638	1	0.078	0.49	1.1	0.078
0.070445	6018	6018	11	17638	17638	1	0.079	0.49	1.1	0.079
0.070441	6014	6014	11	17638	17638	1	0.08	0.49	1.1	0.08
0.070438	6010	6010	11	17638	17638	1	0.081	0.49	1.1	0.081
0.070435	6005	6005	11	17638	17638	1	0.082	0.49	1.1	0.082
0.070431	6001	6001	11	17638	17638	1	0.083	0.49	1.1	0.083
0.070428	5997	5997	11	17638	17638	1	0.084	0.49	1.1	0.084
0.070425	5992	5992	11	17638	17638	1	0.085	0.49	1.1	0.085
0.070421	5988	5988	11	17638	17638	1	0.086	0.49	1.1	0.086
0.070418	5984	5984	11	17638	17638	1	0.087	0.49	1.1	0.087
0.070415	5979	5979	11	17638	17638	1	0.088	0.49	1.1	0.088
0.070411	5975	5975	11	17638	17638	1	0.089	0.49	1.1	0.089
0.070408	5971	5971	11	17638	17638	1	0.09	0.49	1.1	0.09
0.070405	5966	5966	11	17638	17638	1	0.091	0.49	1.1	0.091
0.070401	5962	5962	11	17638	17638	1	0.092	0.49	1.1	0.092
0.070398	5958	5958	11	17638	17638	1	0.093	0.49	1.1	0.093
0.070395	5953	5953	11	17638	17638	1	0.094	0.49	1.1	0.094
0.070391	5949	5949	11	17638	17638	1	0.095	0.49	1.1	0.095
0.070388	5945	5945	11	17638	17638	1	0.096	0.49	1.1	0.096
0.070385	5940	5940	11	17638	17638	1	0.097	0.49	1.1	0.097
0.070381	5936	5936	11	17638	17638	1	0.098	0.49	1.1	0.098
0.070378	5932	5932	11	17638	17638	1	0.099	0.49	1.1	0.099
0.070375	5927	5927	11	17638	17638	1	0.1	0.49	1.1	0.1
0.070371	5923	5923	11	17638	17638	1	0.101	0.49	1.1	0.101
0.070368	5919	5919	11	17638	17638	1	0.102	0.49	1.1	0.102
0.070365	5914	5914	11	17638	17638	1	0.103	0.49	1.1	0.103
0.070361	5910	5910	11	17638	17638	1	0.104	0.49	1.1	0.104
0.070358	5906	5906	11	17638	17638	1	0.105	0.49	1.1	0.105
0.070355	5901	5901	11	17638	17638	1	0.106	0.49	1.1	0.106
0.070351	5897	5897	11	17638	17638	1	0.107	0.49	1.1	0.107
0.070348	5893	5893	11	17638	17638	1	0.108	0.49	1.1	0.108
0.070345	5888	5888	11	17638	17638	1	0.109	0.49	1.1	0.109
0.070341	5884	5884	11	17638	17638	1	0.11	0.49	1.1	0.11
0.070338	5880	5880	11	17638	17638	1	0.111	0.49	1.1	0.111
0.070335	5875	5875	11	17638	17638	1	0.112	0.49	1.1	0.112
0.070331	5871	5871	11	17638	17638	1	0.113	0.49	1.1	0.113
0.070328	5866	5866	11	15820	15820	1	0.114	0.49	1.1	0.114
0.070325	5863	5863	11	15820	15820	1	0.115	0.49	1.1	0.115
0.070323	5859	5859	11	15820	15820	1	0.116	0.49	1.1	0.116
0.070321	5855	5855	11	15820	15820	1	0.117	0.49	1.1	0.117
0.070319	5851	5851	11	15820	15820	1	0.118	0.49	1.1	0.118
0.070317	5847	5847	11	15820	15820	1	0.119	0.49	1.1	0.119
0.070314	5844	5844	11	15820	15820	1	0.12	0.49	1.1	0.12
0.070312	5840	5840	11	15820	15820	1	0.121	0.49	1.1	0.121
0.07031	5836	5836	11	15820	15820	1	0.122	0.49	1.1	0.122
0.070308	5832	5832	11	15820	15820	1	0.123	0.49	1.1	0.123
0.070306	5828	5828	11	15820	15820	1	0.124	0.49	1.1	0.124
0.070303	5824	5824	11	15820	15820	1	0.125	0.49	1.1	0.125
0.070301	5821	5821	11	15820	15820	1	0.126	0.49	1.1	0.126
0.070299	5817	5817	11	15820	15820	1	0.127	0.49	1.1	0.127
0.070297	5813	5813	11	15820	15820	1	0.128	0.49	1.1	0.128
0.070295	5809	5809	11	15820	15820	1	0.129	0.49	1.1	0.129
0.070292	5805	5805	11	15820	15820	1	0.13	0.49	1.1	0.13
0.07029	5802	5802	11	15820	15820	1	0.131	0.49	1.1	0.131
0.070288	5798	5798	11	15820	15820	1	0.132	0.49	1.1	0.132
0.070286	5794	5794	11	15820	15820	1	0.133	0.49	1.1	0.133
0.070284	5790	5790	11	15820	15820	1	0.134	0.49	1.1	0.134
0.070281	5786	5786	11	15820	15820	1	0.135	0.49	1.1	0.135
0.070279	5783	5783	11	15820	15820	1	0.136	0.49	1.1	0.136
0.070277	5779	5779	11	15820	15820	1	0.137	0.49	1.1	0.137
0.070275	5775	5775	11	15820	15820	1	0.138	0.49	1.1	0.138
0.070273	5771	5771	11	15820	15820	1	0.139	0.49	1.1	0.139
0.07027	5767	5767	11	15820	15820	1	0.14	0.49	1.1	0.14
0.070268	5763	5763	11	15820	15820	1	0.141	0.49	1.1	0.141
0.070266	5760	5760	11	15820	15820	1	0.142	0.49	1.1	0.142
0.070264	5756	5756	11	15820	15820	1	0.143	0.49	1.1	0.143
0.070262	5752	5752	11	15820	15820	1	0.144	0.49	1.1	0.144
0.070259	5748	5748	11	15820	15820	1	0.145	0.49	1.1	0.145
0.070257	5744	5744	11	15820	15820	1	0.146	0.49	1.1	0.146
0.070255	5741	5741	11	15820	15820	1	0.147	0.49	1.1	0.147
0.070253	5737	5737	11	15820	15820	1	0.148	0.49	1.1	0.148
0.070251	5733	5733	11	15820	15820	1	0.149	0.49	1.1	0.149
0.070248	5729	5729	11	15820	15820	1	0.15	0.49	1.1	0.15
0.070246	5725	5725	11	15820	15820	1	0.151	0.49	1.1	0.151
0.070244	5722	5722	11	15820	15820	1	0.152	0.49	1.1	0.152
0.070242	5718	5718	11	15820	15820	1	0.153	0.49	1.1	0.153
0.07024	5714	5714	11	15820	15820	1	0.154	0.49	1.1	0.154
0.070237	5710	5710	11	15820	15820	1	0.155	0.49	1.1	0.155
0.070235	5706	5706	11	15820	15820	1	0.156	0.49	1.1	0.156
0.070233	5702	5702	11	15820	15820	1	0.157	0.49	1.1	0.157
0.070231	5699	5699	11	15820	15820	1	0.158	0.49	1.1	0.158
0.070229	5695	5695	11	15820	15820	1	0.159	0.49	1.1	0.159
0.070226	5691	5691	11	15820	15820	1	0.16	0.49	1.1	0.16
0.070224	5687	5687	11	15820	15820	1	0.161	0.49	1.1	0.161
0.070222	5683	5683	11	15820	15820	1	0.162	0.49	1.1	0.162
0.07022	5680	5680	11	15820	15820	1	0.163	0.49	1.1	0.163
0.070218	5676	5676	11	15820	15820	1	0.164	0.49	1.1	0.164
0.070216	5672	5672	11	15820	15820	1	0.165	0.49	1.1	0.165
0.070213	5668	5668	11	15820	15820	1	0.166	0.49	1.1	0.166
0.070211	5664	5664	11	15820	15820	1	0.167	0.49	1.1	0.167
0.070209	5661	5661	11	15820	15820	1	0.168	0.49	1.1	0.168
0.070207	5657	5657	11	15820	15820	1	0.169	0.49	1.1	0.169
0.070205	5653	5653	11	15820	15820	1	0.17	0.49	1.1	0.17
0.070202	5649	5649	11	15820	15820	1	0.171	0.49	1.1	0.171
0.0702	5645	5645	11	15820	15820	1	0.172	0.49	1.1	0.172
0.070198	5641	5641	11	15820	15820	1	0.173	0.49	1.1	0.173
0.070196	5638	5638	11	15820	15820	1	0.174	0.49	1.1	0.174
0.070194	5634	5634	11	15820	15820	1	0.175	0.49	1.1	0.175
0.070191	5630	5630	11	15820	15820	1	0.176	0.49	1.1	0.176
0.070189	5626	5626	11	15820	15820	1	0.177	0.49	1.1	0.177
0.070187	5622	5622	11	15820	15820	1	0.178	0.49	1.1	0.178
0.070185	5619	5619	11	15820	15820	1	0.179	0.49	1.1	0.179
0.070183	5615	5615	11	15820	15820	1	0.18	0.49	1.1	0.18
0.07018	5611	5611	11	15820	15820	1	0.181	0.49	1.1	0.181
0.070178	5607	5607	11	15820	15820	1	0.182	0.49	1.1	0.182
0.070176	5603	5603	11	15820	15820	1	0.183	0.49	1.1	0.183
0.070174	5600	5600	11	15820	15820	1	0.184	0.49	1.1	0.184
0.070172	5596	5596	11	15820	15820	1	0.185	0.49	1.1	0.185
0.070169	5592	5592	11	15820	15820	1	0.186	0.49	1.1	0.186
0.070167	5588	5588	11	15820	15820	1	0.187	0.49	1.1	0.187
0.070165	5584	5584	11	15820	15820	1	0.188	0.49	1.1	0.188
0.070163	5580	5580	11	15820	15820	1	0.189	0.49	1.1	0.189
0.070161	5577	5577	11	15820	15820	1	0.19	0.49	1.1	0.19
0.070158	5573	5573	11	15820	15820	1	0.191	0.49	1.1	0.191
0.070156	5569	5569	11	15820	15820	1	0.192	0.49	1.1	0.192
0.070152	5568	5568	11	20603	20603	1	0.193	0.49	1.1	0.193
0.070147	5568	5568	11	20603	20603	1	0.194	0.49	1.1	0.194
0.070142	5568	5568	11	20603	20603	1	0.195	0.49	1.1	0.195
0.070137	5568	5568	11	20603	20603	1	0.196	0.49	1.1	0.196
0.070132	5568	5568	11	20603	20603	1	0.197	0.49	1.1	0.197
0.070127	5569	5569	11	20603	20603	1	0.198	0.49	1.1	0.198
0.070122	5569	5569	11	20603	20603	1	0.199	0.49	1.1	0.199
0.070117	5569	5569	11	20603	20603	1	0.2	0.49	1.1	0.2
0.070112	5569	5569	11	20603	20603	1	0.201	0.49	1.1	0.201
0.070107	5569	5569	11	20603	20603	1	0.202	0.49	1.1	0.202
0.070102	5569	5569	11	20603	20603	1	0.203	0.49	1.1	0.203
0.070097	5570	5570	11	20603	20603	1	0.204	0.49	1.1	0.204
0.070092	5570	5570	11	20603	20603	1	0.205	0.49	1.1	0.205
0.070087	5570	5570	11	20603	20603	1	0.206	0.49	1.1	0.206
0.070082	5570	5570	11	20603	20603	1	0.207	0.49	1.1	0.207
0.070077	5570	5570	11	20603	20603	1	0.208	0.49	1.1	0.208
0.070072	5571	5571	11	20603	20603	1	0.209	0.49	1.1	0.209
0.070067	5571	5571	11	20603	20603	1	0.21	0.49	1.1	0.21
0.070061	5572	5572	11	18159	18159	1	0.211	0.49	1.1	0.211
0.070055	5574	5574	11	18159	18159	1	0.212	0.49	1.1	0.212
0.070049	5576	5576	11	18159	18159	1	0.213	0.49	1.1	0.213
0.070043	5578	5578	11	18159	18159	1	0.214	0.49	1.1	0.214
0.070037	5580	5580	11	18159	18159	1	0.215	0.49	1.1	0.215
0.070031	5582	5582	11	18159	18159	1	0.216	0.49	1.1	0.216
0.070024	5585	5585	11	18159	18159	1	0.217	0.49	1.1	0.217
0.070018	5587	5587	11	18159	18159	1	0.218	0.49	1.1	0.218
0.070012	5589	5589	11	18159	18159	1	0.219	0.49	1.1	0.219
0.070006	5591	5591	11	18159	18159	1	0.22	0.49	1.1	0.22
0.07	5593	5593	11	18159	18159	1	0.221	0.49	1.1	0.221
0.069994	5595	5595	11	18159	18159	1	0.222	0.49	1.1	0.222
0.069988	5597	5597	11	18159	18159	1	0.223	0.49	1.1	0.223
0.069982	5600	5600	11	18159	18159	1	0.224	0.49	1.1	0.224
0.069976	5602	5602	11	18159	18159	1	0.225	0.49	1.1	0.225
0.069969	5604	5604	11	18159	18159	1	0.226	0.49	1.1	0.226
0.069963	5606	5606	11	18159	18159	1	0.227	0.49	1.1	0.227
0.069957	5608	5608	11	18159	18159	1	0.228	0.49	1.1	0.228
0.069951	5610	5610	11	18159	18159	1	0.229	0.49	1.1	0.229
0.069945	5613	5613	11	18159	18159	1	0.23	0.49	1.1	0.23
0.069939	5615	5615	11	18159	18159	1	0.231	0.49	1.1	0.231
0.069933	5617	5617	11	18159	18159	1	0.232	0.49	1.1	0.232
0.069927	5619	5619	11	18159	18159	1	0.233	0.49	1.1	0.233
0.069921	5621	5621	11	18159	18159	1	0.234	0.49	1.1	0.234
0.069914	5623	5623	11	18159	18159	1	0.235	0.49	1.1	0.235
0.069908	5625	5625	11	18159	18159	1	0.236	0.49	1.1	0.236
0.069902	5628	5628	11	18159	18159	1	0.237	0.49	1.1	0.237
0.069896	5630	5630	11	18159	18159	1	0.238	0.49	1.1	0.238
0.06989	5632	5632	11	18159	18159	1	0.239	0.49	1.1	0.239
0.069884	5634	5634	11	18159	18159	1	0.24	0.49	1.1	0.24
0.069878	5636	5636	11	18159	18159	1	0.241	0.49	1.1	0.241
0.069872	5638	5638	11	18159	18159	1	0.242	0.49	1.1	0.242
0.069865	5640	5640	11	18159	18159	1	0.243	0.49	1.1	0.243
0.069859	5643	5643	11	18159	18159	1	0.244	0.49	1.1	0.244
0.069853	5645	5645	11	18159	18159	1	0.245	0.49	1.1	0.245
0.069847	5647	5647	11	18159	18159	1	0.246	0.49	1.1	0.246
0.069841	5649	5649	11	18159	18159	1	0.247	0.49	1.1	0.247
0.069835	5651	5651	11	18159	18159	1	0.248	0.49	1.1	0.248
0.069829	5653	5653	11	18159	18159	1	0.249	0.49	1.1	0.249
0.069823	5655	5655	11	18159	18159	1	0.25	0.49	1.1	0.25
0.069817	5658	5658	11	18159	18159	1	0.251	0.49	1.1	0.251
0.06981	5660	5660	11	18159	18159	1	0.252	0.49	1.1	0.252
0.069804	5662	5662	11	18159	18159	1	0.253	0.49	1.1	0.253
0.069798	5664	5664	11	18159	18159	1	0.254	0.49	1.1	0.254
0.069792	5666	5666	11	18159	18159	1	0.255	0.49	1.1	0.255
0.069786	5668	5668	11	18159	18159	1	0.256	0.49	1.1	0.256
0.06978	5671	5671	11	18159	18159	1	0.257	0.49	1.1	0.257
0.069774	5673	5673	11	18159	18159	1	0.258	0.49	1.1	0.258
0.069768	5675	5675	11	18159	18159	1	0.259	0.49	1.1	0.259
0.069762	5677	5677	11	18159	18159	1	0.26	0.49	1.1	0.26
0.069755	5679	5679	11	18159	18159	1	0.261	0.49	1.1	0.261
0.069749	5681	5681	11	18159	18159	1	0.262	0.49	1.1	0.262
0.069743	5683	5683	11	18159	18159	1	0.263	0.49	1.1	0.263
0.069737	5686	5686	11	18159	18159	1	0.264	0.49	1.1	0.264
0.069731	5688	5688	11	18159	18159	1	0.265	0.49	1.1	0.265
0.069725	5690	5690	11	18159	18159	1	0.266	0.49	1.1	0.266
0.069719	5692	5692	11	18159	18159	1	0.267	0.49	1.1	0.267
0.069713	5694	5694	11	18159	18159	1	0.268	0.49	1.1	0.268
0.069707	5696	5696	11	18159	18159	1	0.269	0.49	1.1	0.269
0.0697	5698	5698	11	18159	18159	1	0.27	0.49	1.1	0.27
0.069694	5701	5701	11	18159	18159	1	0.271	0.49	1.1	0.271
0.069688	5703	5703	11	18159	18159	1	0.272	0.49	1.1	0.272
0.069682	5705	5705	11	18159	18159	1	0.273	0.49	1.1	0.273
0.069676	5707	5707	11	18159	18159	1	0.274	0.49	1.1	0.274
0.06967	5709	5709	11	18159	18159	1	0.275	0.49	1.1	0.275
0.069664	5711	5711	11	18159	18159	1	0.276	0.49	1.1	0.276
0.069658	5713	5713	11	18159	18159	1	0.277	0.49	1.1	0.277
0.069651	5716	5716	11	18159	18159	1	0.278	0.49	1.1	0.278
0.069645	5718	5718	11	18159	18159	1	0.279	0.49	1.1	0.279
0.069639	5720	5720	11	18159	18159	1	0.28	0.49	1.1	0.28
0.069633	5722	5722	11	18159	18159	1	0.281	0.49	1.1	0.281
0.069627	5724	5724	11	18159	18159	1	0.282	0.49	1.1	0.282
0.069621	5726	5726	11	18159	18159	1	0.283	0.49	1.1	0.283
0.069615	5729	5729	11	18159	18159	1	0.284	0.49	1.1	0.284
0.069609	5731	5731	11	18159	18159	1	0.285	0.49	1.1	0.285
0.069603	5733	5733	11	18159	18159	1	0.286	0.49	1.1	0.286
0.069596	5735	5735	11	18159	18159	1	0.287	0.49	1.1	0.287
0.06959	5737	5737	11	18159	18159	1	0.288	0.49	1.1	0.288
0.069584	5739	5739	11	18159	18159	1	0.289	0.49	1.1	0.289
0.069578	5741	5741	11	18159	18159	1	0.29	0.49	1.1	0.29
0.069572	5744	5744	11	18159	18159	1	0.291	0.49	1.1	0.291
0.069566	5746	5746	11	18159	18159	1	0.292	0.49	1.1	0.292
0.06956	5748	5748	11	18159	18159	1	0.293	0.49	1.1	0.293
0.069554	5750	5750	11	18159	18159	1	0.294	0.49	1.1	0.294
0.069548	5752	5752	11	18159	18159	1	0.295	0.49	1.1	0.295
0.069541	5754	5754	11	18159	18159	1	0.296	0.49	1.1	0.296
0.069535	5756	5756	11	18159	18159	1	0.297	0.49	1.1	0.297
0.069529	5759	5759	11	18159	18159	1	0.298	0.49	1.1	0.298
0.069523	5761	5761	11	18159	18159	1	0.299	0.49	1.1	0.299
0.069517	5763	5763	11	18159	18159	1	0.3	0.49	1.1	0.3
0.069511	5765	5765	11	18159	18159	1	0.301	0.49	1.1	0.301
0.069505	5767	5767	11	18159	18159	1	0.302	0.49	1.1	0.302
0.069499	5769	5769	11	18159	18159	1	0.303	0.49	1.1	0.303
0.069493	5771	5771	11	18159	18159	1	0.304	0.49	1.1	0.304
0.069486	5774	5774	11	18159	18159	1	0.305	0.49	1.1	0.305
0.06948	5776	5776	11	18159	18159	1	0.306	0.49	1.1	0.306
0.069474	5778	5778	11	18159	18159	1	0.307	0.49	1.1	0.307
0.069468	5780	5780	11	18159	18159	1	0.308	0.49	1.1	0.308
0.069462	5782	5782	11	18159	18159	1	0.309	0.49	1.1	0.309
0.069456	5784	5784	11	18159	18159	1	0.31	0.49	1.1	0.31
0.06945	5787	5787	11	18159	18159	1	0.311	0.49	1.1	0.311
0.069444	5789	5789	11	18159	18159	1	0.312	0.49	1.1	0.312
0.069437	5791	5791	11	18159	18159	1	0.313	0.49	1.1	0.313
0.069431	5793	5793	11	18159	18159	1	0.314	0.49	1.1	0.314
0.069425	5795	5795	11	18159	18159	1	0.315	0.49	1.1	0.315
0.069419	5797	5797	11	18159	18159	1	0.316	0.49	1.1	0.316
0.069413	5799	5799	11	18159	18159	1	0.317	0.49	1.1	0.317
0.069407	5802	5802	11	18159	18159	1	0.318	0.49	1.1	0.318
0.069401	5800	5800	11	12851	12851	1	0.319	0.49	1.1	0.319
0.069395	5795	5795	11	12851	12851	1	0.32	0.49	1.1	0.32
0.069388	5790	5790	11	12851	12851	1	0.321	0.49	1.1	0.321
0.069382	5784	5784	11	12851	12851	1	0.322	0.49	1.1	0.322
0.069376	5779	5779	11	12851	12851	1	0.323	0.49	1.1	0.323
0.06937	5774	5774	11	12851	12851	1	0.324	0.49	1.1	0.324
0.069364	5769	5769	11	12851	12851	1	0.325	0.49	1.1	0.325
0.069357	5764	5764	11	12851	12851	1	0.326	0.49	1.1	0.326
0.069351	5758	5758	11	12851	12851	1	0.327	0.49	1.1	0.327
0.069345	5753	5753	11	12851	12851	1	0.328	0.49	1.1	0.328
0.069339	5748	5748	11	12851	12851	1	0.329	0.49	1.1	0.329
0.069333	5743	5743	11	12851	12851	1	0.33	0.49	1.1	0.33
0.069326	5738	5738	11	12851	12851	1	0.331	0.49	1.1	0.331
0.06932	5732	5732	11	12851	12851	1	0.332	0.49	1.1	0.332
0.069314	5727	5727	11	12851	12851	1	0.333	0.49	1.1	0.333
0.069303	0	0	13	56344	56344	1	0.334	0.49	1.1	0.334
0.06929	0	0	13	56344	56344	1	0.335	0.49	1.1	0.335
0.069276	0	0	13	56344	56344	1	0.336	0.49	1.1	0.336
0.069263	0	0	13	56344	56344	1	0.337	0.49	1.1	0.337
0.069249	0	0	13	56344	56344	1	0.338	0.49	1.1	0.338
0.069236	0	0	13	56344	56344	1	0.339	0.49	1.1	0.339
0.069223	0	0	13	56344	56344	1	0.34	0.49	1.1	0.34
0.069209	0	0	13	56344	56344	1	0.341	0.49	1.1	0.341
0.069196	0	0	13	56344	56344	1	0.342	0.49	1.1	0.342
0.069182	0	0	13	56344	56344	1	0.343	0.49	1.1	0.343
0.069169	0	0	13	56344	56344	1	0.344	0.49	1.1	0.344
0.069156	0	0	13	56344	56344	1	0.345	0.49	1.1	0.345
0.069142	0	0	13	56344	56344	1	0.346	0.49	1.1	0.346
0.069129	0	0	13	56344	56344	1	0.347	0.49	1.1	0.347
0.069115	0	0	13	59522	59522	1	0.348	0.49	1.1	0.348
0.069101	0	0	13	59522	59522	1	0.349	0.49	1.1	0.349
0.069087	0	0	13	59522	59522	1	0.35	0.49	1.1	0.35
0.069073	0	0	13	59522	59522	1	0.351	0.49	1.1	0.351
